"MZ","intensity"
3000,0.44368
3000.20002,0.44397
3000.40004,0.44425
3000.60006,0.44454
3000.80008,0.44482
3001.0001,0.4451
3001.20012,0.44539
3001.40014,0.44567
3001.60016,0.44596
3001.80018,0.44624
3002.0002,0.44653
3002.2002,0.44681
3002.4002,0.4471
3002.6002,0.44738
3002.8002,0.44767
3003.0004,0.44796
3003.2004,0.44824
3003.4004,0.44853
3003.6004,0.44881
3003.8004,0.4491
3004.0004,0.44939
3004.2004,0.44967
3004.4004,0.44996
3004.6004,0.45024
3004.8004,0.45053
3005.0006,0.45082
3005.2006,0.4511
3005.4006,0.45139
3005.6006,0.45168
3005.8006,0.45197
3006.0006,0.45225
3006.2006,0.45254
3006.4006,0.45283
3006.6006,0.45312
3006.8006,0.4534
3007.0008,0.45369
3007.2008,0.45398
3007.4008,0.45427
3007.6008,0.45455
3007.8008,0.45484
3008.0008,0.45513
3008.2008,0.45542
3008.4008,0.45571
3008.6008,0.456
3008.8008,0.45629
3009.001,0.45657
3009.201,0.45686
3009.401,0.45715
3009.601,0.45744
3009.801,0.45773
3010.001,0.45802
3010.201,0.45831
3010.401,0.4586
3010.601,0.45889
3010.801,0.45918
3011.0012,0.45947
3011.2012,0.45976
3011.4012,0.46005
3011.6012,0.46034
3011.8012,0.46063
3012.0012,0.46092
3012.2012,0.46121
3012.4012,0.4615
3012.6012,0.46179
3012.8012,0.46208
3013.0014,0.46238
3013.2014,0.46267
3013.4014,0.46296
3013.6014,0.46325
3013.8014,0.46354
3014.0014,0.46383
3014.2014,0.46412
3014.4014,0.46442
3014.6014,0.46471
3014.8014,0.465
3015.0016,0.46529
3015.2016,0.46558
3015.4016,0.46588
3015.6016,0.46617
3015.8016,0.46646
3016.0016,0.46675
3016.2016,0.46705
3016.4016,0.46734
3016.6016,0.46763
3016.8016,0.46793
3017.0018,0.46822
3017.2018,0.46851
3017.4018,0.46881
3017.6018,0.4691
3017.8018,0.46939
3018.0018,0.46969
3018.2018,0.46998
3018.4018,0.47028
3018.6018,0.47057
3018.8018,0.47086
3019.002,0.47116
3019.202,0.47145
3019.402,0.47175
3019.602,0.47204
3019.802,0.47234
3020.002,0.47263
3020.202,0.47293
3020.402,0.47322
3020.602,0.47352
3020.802,0.47381
3021.002,0.47411
3021.202,0.4744
3021.402,0.4747
3021.602,0.475
3021.802,0.47529
3022.002,0.47559
3022.202,0.47588
3022.402,0.47618
3022.602,0.47648
3022.802,0.47677
3023.002,0.47707
3023.202,0.47737
3023.402,0.47766
3023.602,0.47796
3023.802,0.47826
3024.002,0.47855
3024.202,0.47885
3024.402,0.47915
3024.602,0.47944
3024.802,0.47974
3025.002,0.48004
3025.202,0.48034
3025.402,0.48064
3025.602,0.48093
3025.802,0.48123
3026.002,0.48153
3026.202,0.48183
3026.402,0.48213
3026.602,0.48242
3026.802,0.48272
3027.002,0.48302
3027.202,0.48332
3027.402,0.48362
3027.602,0.48392
3027.802,0.48422
3028.002,0.48452
3028.202,0.48482
3028.402,0.48512
3028.602,0.48541
3028.802,0.48571
3029.002,0.48601
3029.202,0.48631
3029.402,0.48661
3029.602,0.48691
3029.802,0.48721
3030.004,0.48751
3030.204,0.48782
3030.404,0.48812
3030.604,0.48842
3030.804,0.48872
3031.004,0.48902
3031.204,0.48932
3031.404,0.48962
3031.604,0.48992
3031.804,0.49022
3032.004,0.49052
3032.204,0.49082
3032.404,0.49113
3032.604,0.49143
3032.804,0.49173
3033.004,0.49203
3033.204,0.49233
3033.404,0.49264
3033.604,0.49294
3033.804,0.49324
3034.004,0.49354
3034.204,0.49385
3034.404,0.49415
3034.604,0.49445
3034.804,0.49475
3035.004,0.49506
3035.204,0.49536
3035.404,0.49566
3035.604,0.49597
3035.804,0.49627
3036.004,0.49657
3036.204,0.49688
3036.404,0.49718
3036.604,0.49748
3036.804,0.49779
3037.004,0.49809
3037.204,0.4984
3037.404,0.4987
3037.604,0.499
3037.804,0.49931
3038.004,0.49961
3038.204,0.49992
3038.404,0.50022
3038.604,0.50053
3038.804,0.50083
3039.004,0.50114
3039.204,0.50144
3039.404,0.50175
3039.604,0.50205
3039.804,0.50236
3040.004,0.50266
3040.204,0.50297
3040.404,0.50328
3040.604,0.50358
3040.804,0.50389
3041.004,0.50419
3041.204,0.5045
3041.404,0.50481
3041.604,0.50511
3041.804,0.50542
3042.004,0.50573
3042.204,0.50603
3042.404,0.50634
3042.604,0.50665
3042.804,0.50695
3043.004,0.50726
3043.204,0.50757
3043.404,0.50788
3043.604,0.50818
3043.804,0.50849
3044.004,0.5088
3044.204,0.50911
3044.404,0.50941
3044.604,0.50972
3044.804,0.51003
3045.004,0.51034
3045.204,0.51065
3045.404,0.51096
3045.604,0.51126
3045.804,0.51157
3046.004,0.51188
3046.204,0.51219
3046.404,0.5125
3046.604,0.51281
3046.804,0.51312
3047.004,0.51343
3047.204,0.51374
3047.404,0.51405
3047.604,0.51436
3047.804,0.51466
3048.004,0.51497
3048.204,0.51528
3048.404,0.51559
3048.604,0.5159
3048.804,0.51621
3049.004,0.51653
3049.204,0.51684
3049.404,0.51715
3049.604,0.51746
3049.804,0.51777
3050.006,0.51808
3050.206,0.51839
3050.406,0.5187
3050.606,0.51901
3050.806,0.51932
3051.006,0.51963
3051.206,0.51995
3051.406,0.52026
3051.606,0.52057
3051.806,0.52088
3052.006,0.52119
3052.206,0.5215
3052.406,0.52182
3052.606,0.52213
3052.806,0.52244
3053.006,0.52275
3053.206,0.52307
3053.406,0.52338
3053.606,0.52369
3053.806,0.524
3054.006,0.52432
3054.206,0.52463
3054.406,0.52494
3054.606,0.52526
3054.806,0.52557
3055.006,0.52588
3055.206,0.5262
3055.406,0.52651
3055.606,0.52682
3055.806,0.52714
3056.006,0.52745
3056.206,0.52776
3056.406,0.52808
3056.606,0.52839
3056.806,0.52871
3057.006,0.52902
3057.206,0.52934
3057.406,0.52965
3057.606,0.52997
3057.806,0.53028
3058.006,0.5306
3058.206,0.53091
3058.406,0.53123
3058.606,0.53154
3058.806,0.53186
3059.006,0.53217
3059.206,0.53249
3059.406,0.5328
3059.606,0.53312
3059.806,0.53343
3060.006,0.53375
3060.206,0.53407
3060.406,0.53438
3060.606,0.5347
3060.806,0.53502
3061.006,0.53533
3061.206,0.53565
3061.406,0.53597
3061.606,0.53628
3061.806,0.5366
3062.006,0.53692
3062.206,0.53723
3062.406,0.53755
3062.606,0.53787
3062.806,0.53818
3063.006,0.5385
3063.206,0.53882
3063.406,0.53914
3063.606,0.53946
3063.806,0.53977
3064.006,0.54009
3064.206,0.54041
3064.406,0.54073
3064.606,0.54105
3064.806,0.54136
3065.006,0.54168
3065.206,0.542
3065.406,0.54232
3065.606,0.54264
3065.806,0.54296
3066.006,0.54328
3066.206,0.5436
3066.406,0.54391
3066.606,0.54423
3066.806,0.54455
3067.006,0.54487
3067.206,0.54519
3067.406,0.54551
3067.606,0.54583
3067.806,0.54615
3068.006,0.54647
3068.206,0.54679
3068.406,0.54711
3068.606,0.54743
3068.806,0.54775
3069.006,0.54807
3069.206,0.54839
3069.406,0.54871
3069.606,0.54904
3069.806,0.54936
3070.008,0.54968
3070.208,0.55
3070.408,0.55032
3070.608,0.55064
3070.808,0.55096
3071.008,0.55128
3071.208,0.55161
3071.408,0.55193
3071.608,0.55225
3071.808,0.55257
3072.008,0.55289
3072.208,0.55321
3072.408,0.55354
3072.608,0.55386
3072.808,0.55418
3073.008,0.5545
3073.208,0.55483
3073.408,0.55515
3073.608,0.55547
3073.808,0.5558
3074.008,0.55612
3074.208,0.55644
3074.408,0.55676
3074.608,0.55709
3074.808,0.55741
3075.008,0.55773
3075.208,0.55806
3075.408,0.55838
3075.608,0.55871
3075.808,0.55903
3076.008,0.55935
3076.208,0.55968
3076.408,0.56
3076.608,0.56033
3076.808,0.56065
3077.008,0.56097
3077.208,0.5613
3077.408,0.56162
3077.608,0.56195
3077.808,0.56227
3078.008,0.5626
3078.208,0.56292
3078.408,0.56325
3078.608,0.56357
3078.808,0.5639
3079.008,0.56422
3079.208,0.56455
3079.408,0.56488
3079.608,0.5652
3079.808,0.56553
3080.008,0.56585
3080.208,0.56618
3080.408,0.56651
3080.608,0.56683
3080.808,0.56716
3081.008,0.56748
3081.208,0.56781
3081.408,0.56814
3081.608,0.56846
3081.808,0.56879
3082.008,0.56912
3082.208,0.56944
3082.408,0.56977
3082.608,0.5701
3082.808,0.57043
3083.008,0.57075
3083.208,0.57108
3083.408,0.57141
3083.608,0.57174
3083.808,0.57206
3084.008,0.57239
3084.208,0.57272
3084.408,0.57305
3084.608,0.57338
3084.808,0.5737
3085.008,0.57403
3085.208,0.57436
3085.408,0.57469
3085.608,0.57502
3085.808,0.57535
3086.008,0.57568
3086.208,0.576
3086.408,0.57633
3086.608,0.57666
3086.808,0.57699
3087.008,0.57732
3087.208,0.57765
3087.408,0.57798
3087.608,0.57831
3087.808,0.57864
3088.008,0.57897
3088.208,0.5793
3088.408,0.57963
3088.608,0.57996
3088.808,0.58029
3089.008,0.58062
3089.208,0.58095
3089.408,0.58128
3089.608,0.58161
3089.808,0.58194
3090.01,0.58227
3090.21,0.5826
3090.41,0.58293
3090.61,0.58326
3090.81,0.5836
3091.01,0.58393
3091.21,0.58426
3091.41,0.58459
3091.61,0.58492
3091.81,0.58525
3092.01,0.58558
3092.21,0.58592
3092.41,0.58625
3092.61,0.58658
3092.81,0.58691
3093.01,0.58724
3093.21,0.58758
3093.41,0.58791
3093.61,0.58824
3093.81,0.58857
3094.01,0.58891
3094.21,0.58924
3094.41,0.58957
3094.61,0.5899
3094.81,0.59024
3095.01,0.59057
3095.21,0.5909
3095.41,0.59124
3095.61,0.59157
3095.81,0.5919
3096.01,0.59224
3096.21,0.59257
3096.41,0.5929
3096.61,0.59324
3096.81,0.59357
3097.01,0.59391
3097.21,0.59424
3097.41,0.59457
3097.61,0.59491
3097.81,0.59524
3098.01,0.59558
3098.21,0.59591
3098.41,0.59625
3098.61,0.59658
3098.81,0.59692
3099.01,0.59725
3099.21,0.59759
3099.41,0.59792
3099.61,0.59826
3099.81,0.59859
3100.01,0.59893
3100.21,0.59926
3100.41,0.5996
3100.61,0.59993
3100.81,0.60027
3101.01,0.6006
3101.21,0.60094
3101.41,0.60128
3101.61,0.60161
3101.81,0.60195
3102.01,0.60229
3102.21,0.60262
3102.41,0.60296
3102.61,0.60329
3102.81,0.60363
3103.01,0.60397
3103.21,0.60431
3103.41,0.60464
3103.61,0.60498
3103.81,0.60532
3104.01,0.60565
3104.21,0.60599
3104.41,0.60633
3104.61,0.60667
3104.81,0.607
3105.01,0.60734
3105.21,0.60768
3105.41,0.60802
3105.61,0.60835
3105.81,0.60869
3106.01,0.60903
3106.21,0.60937
3106.41,0.60971
3106.61,0.61005
3106.81,0.61038
3107.01,0.61072
3107.21,0.61106
3107.41,0.6114
3107.61,0.61174
3107.81,0.61208
3108.01,0.61242
3108.21,0.61276
3108.41,0.6131
3108.61,0.61343
3108.81,0.61377
3109.01,0.61411
3109.21,0.61445
3109.41,0.61479
3109.61,0.61513
3109.81,0.61547
3110.012,0.61581
3110.212,0.61615
3110.412,0.61649
3110.612,0.61683
3110.812,0.61717
3111.012,0.61751
3111.212,0.61785
3111.412,0.61819
3111.612,0.61853
3111.812,0.61888
3112.012,0.61922
3112.212,0.61956
3112.412,0.6199
3112.612,0.62024
3112.812,0.62058
3113.012,0.62092
3113.212,0.62126
3113.412,0.6216
3113.612,0.62195
3113.812,0.62229
3114.012,0.62263
3114.212,0.62297
3114.412,0.62331
3114.612,0.62365
3114.812,0.624
3115.012,0.62434
3115.212,0.62468
3115.412,0.62502
3115.612,0.62537
3115.812,0.62571
3116.012,0.62605
3116.212,0.62639
3116.412,0.62674
3116.612,0.62708
3116.812,0.62742
3117.012,0.62776
3117.212,0.62811
3117.412,0.62845
3117.612,0.62879
3117.812,0.62914
3118.012,0.62948
3118.212,0.62982
3118.412,0.63017
3118.612,0.63051
3118.812,0.63086
3119.012,0.6312
3119.212,0.63154
3119.412,0.63189
3119.612,0.63223
3119.812,0.63258
3120.012,0.63292
3120.212,0.63326
3120.412,0.63361
3120.612,0.63395
3120.812,0.6343
3121.012,0.63464
3121.212,0.63499
3121.412,0.63533
3121.612,0.63568
3121.812,0.63602
3122.012,0.63637
3122.212,0.63671
3122.412,0.63706
3122.612,0.6374
3122.812,0.63775
3123.012,0.63809
3123.212,0.63844
3123.412,0.63879
3123.612,0.63913
3123.812,0.63948
3124.012,0.63982
3124.212,0.64017
3124.412,0.64052
3124.612,0.64086
3124.812,0.64121
3125.012,0.64155
3125.212,0.6419
3125.412,0.64225
3125.612,0.64259
3125.812,0.64294
3126.012,0.64329
3126.212,0.64364
3126.412,0.64398
3126.612,0.64433
3126.812,0.64468
3127.012,0.64502
3127.212,0.64537
3127.412,0.64572
3127.612,0.64607
3127.812,0.64641
3128.012,0.64676
3128.212,0.64711
3128.412,0.64746
3128.612,0.64781
3128.812,0.64815
3129.012,0.6485
3129.212,0.64885
3129.412,0.6492
3129.612,0.64955
3129.812,0.64989
3130.014,0.65024
3130.214,0.65059
3130.414,0.65094
3130.614,0.65129
3130.814,0.65164
3131.014,0.65199
3131.214,0.65234
3131.414,0.65268
3131.614,0.65303
3131.814,0.65338
3132.014,0.65373
3132.214,0.65408
3132.414,0.65443
3132.614,0.65478
3132.814,0.65513
3133.014,0.65548
3133.214,0.65583
3133.414,0.65618
3133.614,0.65653
3133.814,0.65688
3134.014,0.65723
3134.214,0.65758
3134.414,0.65793
3134.614,0.65828
3134.814,0.65863
3135.014,0.65898
3135.214,0.65933
3135.414,0.65968
3135.614,0.66003
3135.814,0.66039
3136.014,0.66074
3136.214,0.66109
3136.414,0.66144
3136.614,0.66179
3136.814,0.66214
3137.014,0.66249
3137.214,0.66284
3137.414,0.6632
3137.614,0.66355
3137.814,0.6639
3138.014,0.66425
3138.214,0.6646
3138.414,0.66495
3138.614,0.66531
3138.814,0.66566
3139.014,0.66601
3139.214,0.66636
3139.414,0.66672
3139.614,0.66707
3139.814,0.66742
3140.014,0.66777
3140.214,0.66813
3140.414,0.66848
3140.614,0.66883
3140.814,0.66918
3141.014,0.66954
3141.214,0.66989
3141.414,0.67024
3141.614,0.6706
3141.814,0.67095
3142.014,0.6713
3142.214,0.67166
3142.414,0.67201
3142.614,0.67236
3142.814,0.67272
3143.014,0.67307
3143.214,0.67342
3143.414,0.67378
3143.614,0.67413
3143.814,0.67449
3144.014,0.67484
3144.214,0.6752
3144.414,0.67555
3144.614,0.6759
3144.814,0.67626
3145.014,0.67661
3145.214,0.67697
3145.414,0.67732
3145.614,0.67768
3145.814,0.67803
3146.014,0.67839
3146.214,0.67874
3146.414,0.6791
3146.614,0.67945
3146.814,0.67981
3147.014,0.68016
3147.214,0.68052
3147.414,0.68087
3147.614,0.68123
3147.814,0.68158
3148.014,0.68194
3148.214,0.6823
3148.414,0.68265
3148.614,0.68301
3148.814,0.68336
3149.014,0.68372
3149.214,0.68408
3149.414,0.68443
3149.614,0.68479
3149.814,0.68514
3150.016,0.6855
3150.216,0.68586
3150.416,0.68621
3150.616,0.68657
3150.816,0.68693
3151.016,0.68728
3151.216,0.68764
3151.416,0.688
3151.616,0.68836
3151.816,0.68871
3152.016,0.68907
3152.216,0.68943
3152.416,0.68978
3152.616,0.69014
3152.816,0.6905
3153.016,0.69086
3153.216,0.69121
3153.416,0.69157
3153.616,0.69193
3153.816,0.69229
3154.016,0.69265
3154.216,0.693
3154.416,0.69336
3154.616,0.69372
3154.816,0.69408
3155.016,0.69444
3155.216,0.6948
3155.416,0.69515
3155.616,0.69551
3155.816,0.69587
3156.016,0.69623
3156.216,0.69659
3156.416,0.69695
3156.616,0.69731
3156.816,0.69766
3157.016,0.69802
3157.216,0.69838
3157.416,0.69874
3157.616,0.6991
3157.816,0.69946
3158.016,0.69982
3158.216,0.70018
3158.416,0.70054
3158.616,0.7009
3158.816,0.70126
3159.016,0.70162
3159.216,0.70198
3159.416,0.70234
3159.616,0.7027
3159.816,0.70306
3160.016,0.70342
3160.216,0.70378
3160.416,0.70414
3160.616,0.7045
3160.816,0.70486
3161.016,0.70522
3161.216,0.70558
3161.416,0.70594
3161.616,0.7063
3161.816,0.70666
3162.016,0.70702
3162.216,0.70738
3162.416,0.70775
3162.616,0.70811
3162.816,0.70847
3163.016,0.70883
3163.216,0.70919
3163.416,0.70955
3163.616,0.70991
3163.816,0.71027
3164.016,0.71064
3164.216,0.711
3164.416,0.71136
3164.616,0.71172
3164.816,0.71208
3165.016,0.71245
3165.216,0.71281
3165.416,0.71317
3165.616,0.71353
3165.816,0.71389
3166.016,0.71426
3166.216,0.71462
3166.416,0.71498
3166.616,0.71534
3166.816,0.71571
3167.016,0.71607
3167.216,0.71643
3167.416,0.71679
3167.616,0.71716
3167.816,0.71752
3168.016,0.71788
3168.216,0.71825
3168.416,0.71861
3168.616,0.71897
3168.816,0.71933
3169.016,0.7197
3169.216,0.72006
3169.416,0.72042
3169.616,0.72079
3169.816,0.72115
3170.018,0.72152
3170.218,0.72188
3170.418,0.72224
3170.618,0.72261
3170.818,0.72297
3171.018,0.72333
3171.218,0.7237
3171.418,0.72406
3171.618,0.72443
3171.818,0.72479
3172.018,0.72516
3172.218,0.72552
3172.418,0.72588
3172.618,0.72625
3172.818,0.72661
3173.018,0.72698
3173.218,0.72734
3173.418,0.72771
3173.618,0.72807
3173.818,0.72844
3174.018,0.7288
3174.218,0.72917
3174.418,0.72953
3174.618,0.7299
3174.818,0.73026
3175.018,0.73063
3175.218,0.73099
3175.418,0.73136
3175.618,0.73172
3175.818,0.73209
3176.018,0.73246
3176.218,0.73282
3176.418,0.73319
3176.618,0.73355
3176.818,0.73392
3177.018,0.73428
3177.218,0.73465
3177.418,0.73502
3177.618,0.73538
3177.818,0.73575
3178.018,0.73612
3178.218,0.73648
3178.418,0.73685
3178.618,0.73722
3178.818,0.73758
3179.018,0.73795
3179.218,0.73831
3179.418,0.73868
3179.618,0.73905
3179.818,0.73942
3180.018,0.73978
3180.218,0.74015
3180.418,0.74052
3180.618,0.74088
3180.818,0.74125
3181.018,0.74162
3181.218,0.74199
3181.418,0.74235
3181.618,0.74272
3181.818,0.74309
3182.018,0.74345
3182.218,0.74382
3182.418,0.74419
3182.618,0.74456
3182.818,0.74493
3183.018,0.74529
3183.218,0.74566
3183.418,0.74603
3183.618,0.7464
3183.818,0.74677
3184.018,0.74713
3184.218,0.7475
3184.418,0.74787
3184.618,0.74824
3184.818,0.74861
3185.018,0.74898
3185.218,0.74934
3185.418,0.74971
3185.618,0.75008
3185.818,0.75045
3186.018,0.75082
3186.218,0.75119
3186.418,0.75156
3186.618,0.75193
3186.818,0.75229
3187.018,0.75266
3187.218,0.75303
3187.418,0.7534
3187.618,0.75377
3187.818,0.75414
3188.018,0.75451
3188.218,0.75488
3188.418,0.75525
3188.618,0.75562
3188.818,0.75599
3189.018,0.75636
3189.218,0.75673
3189.418,0.7571
3189.618,0.75747
3189.818,0.75784
3190.02,0.75821
3190.22,0.75858
3190.42,0.75895
3190.62,0.75932
3190.82,0.75969
3191.02,0.76006
3191.22,0.76043
3191.42,0.7608
3191.62,0.76117
3191.82,0.76154
3192.02,0.76191
3192.22,0.76228
3192.42,0.76265
3192.62,0.76302
3192.82,0.76339
3193.02,0.76376
3193.22,0.76414
3193.42,0.76451
3193.62,0.76488
3193.82,0.76525
3194.02,0.76562
3194.22,0.76599
3194.42,0.76636
3194.62,0.76673
3194.82,0.76711
3195.02,0.76748
3195.22,0.76785
3195.42,0.76822
3195.62,0.76859
3195.82,0.76896
3196.02,0.76933
3196.22,0.76971
3196.42,0.77008
3196.62,0.77045
3196.82,0.77082
3197.02,0.77119
3197.22,0.77157
3197.42,0.77194
3197.62,0.77231
3197.82,0.77268
3198.02,0.77306
3198.22,0.77343
3198.42,0.7738
3198.62,0.77417
3198.82,0.77455
3199.02,0.77492
3199.22,0.77529
3199.42,0.77566
3199.62,0.77604
3199.82,0.77641
3200.02,0.77678
3200.22,0.77715
3200.42,0.77753
3200.62,0.7779
3200.82,0.77827
3201.02,0.77865
3201.22,0.77902
3201.42,0.77939
3201.62,0.77977
3201.82,0.78014
3202.02,0.78051
3202.22,0.78089
3202.42,0.78126
3202.62,0.78163
3202.82,0.78201
3203.02,0.78238
3203.22,0.78275
3203.42,0.78313
3203.62,0.7835
3203.82,0.78388
3204.02,0.78425
3204.22,0.78462
3204.42,0.785
3204.62,0.78537
3204.82,0.78575
3205.02,0.78612
3205.22,0.78649
3205.42,0.78687
3205.62,0.78724
3205.82,0.78762
3206.02,0.78799
3206.22,0.78837
3206.42,0.78874
3206.62,0.78912
3206.82,0.78949
3207.02,0.78987
3207.22,0.79024
3207.42,0.79061
3207.62,0.79099
3207.82,0.79136
3208.02,0.79174
3208.22,0.79211
3208.42,0.79249
3208.62,0.79286
3208.82,0.79324
3209.02,0.79362
3209.22,0.79399
3209.42,0.79437
3209.62,0.79474
3209.82,0.79512
3210.02,0.79549
3210.22,0.79587
3210.42,0.79624
3210.62,0.79662
3210.82,0.79699
3211.02,0.79737
3211.22,0.79775
3211.42,0.79812
3211.62,0.7985
3211.82,0.79887
3212.02,0.79925
3212.22,0.79963
3212.42,0.8
3212.62,0.80038
3212.82,0.80075
3213.02,0.80113
3213.22,0.80151
3213.42,0.80188
3213.62,0.80226
3213.82,0.80264
3214.02,0.80301
3214.22,0.80339
3214.42,0.80376
3214.62,0.80414
3214.82,0.80452
3215.02,0.80489
3215.22,0.80527
3215.42,0.80565
3215.62,0.80603
3215.82,0.8064
3216.02,0.80678
3216.22,0.80716
3216.42,0.80753
3216.62,0.80791
3216.82,0.80829
3217.02,0.80866
3217.22,0.80904
3217.42,0.80942
3217.62,0.8098
3217.82,0.81017
3218.02,0.81055
3218.22,0.81093
3218.42,0.81131
3218.62,0.81168
3218.82,0.81206
3219.02,0.81244
3219.22,0.81282
3219.42,0.81319
3219.62,0.81357
3219.82,0.81395
3220.02,0.81433
3220.22,0.81471
3220.42,0.81508
3220.62,0.81546
3220.82,0.81584
3221.02,0.81622
3221.22,0.8166
3221.42,0.81697
3221.62,0.81735
3221.82,0.81773
3222.02,0.81811
3222.22,0.81849
3222.42,0.81886
3222.62,0.81924
3222.82,0.81962
3223.02,0.82
3223.22,0.82038
3223.42,0.82076
3223.62,0.82114
3223.82,0.82151
3224.02,0.82189
3224.22,0.82227
3224.42,0.82265
3224.62,0.82303
3224.82,0.82341
3225.02,0.82379
3225.22,0.82417
